##TITLE=QuickScan
##JCAMP-DX=6.00 $$ Magritek SpinSolve SPA555-PROTON 1.4.46.2760
##DATA TYPE=NMR FID
##DATA CLASS=NTUPLES
##ORIGIN=SPA555-PROTON at Magritek, NZ
##OWNER=Copyright (C) 2021 by Magritek, NZ
##LONGDATE=2021/01/06 12:23:03.888
##.OBSERVE FREQUENCY=43.447158
##.OBSERVE NUCLEUS=^1H
##.DELAY=( 20.0,  8446)
##.ACQUISITION MODE=SIMULTANEOUS
##.FIELD= 1.0
##.AVERAGES= 1
##.DIGITISER RES=16
##.PULSE SEQUENCE= PULSE ACQUISITION
p=  8.60
rd= 8446
##$REFERENCE_POINT= 2292.045    $$ Referencing label
$$      Distance of the zero axis position (in Hz) from the last data
$$      point (right edge); positive values -> right edge is below 0 Hz
##SPECTROMETER/DATA SYSTEM=Magritek SpinSolve SPA555-PROTON 1.4.46.2760
##SAMPLE DESCRIPTION=solvent=THF  
##NTUPLES=NMR FID
##VAR_NAME=        TIME,            FID/REAL,            FID/IMAG, PAGE NUMBER
##SYMBOL=             X,                   R,                   I,           N
##VAR_TYPE= INDEPENDENT,           DEPENDENT,           DEPENDENT,        PAGE
##VAR_FORM=        AFFN,                AFFN,                AFFN,        AFFN
##VAR_DIM=        32768,               32768,               32768,           2
##UNITS=        SECONDS,     ARBITRARY UNITS,     ARBITRARY UNITS,            
##FIRST=              0,3.65929508916452e-13,-5.7109872386718e-12,           1
##LAST=    6.553400e+00,  -0,248438569014161,  -0,149497049245803,           2
##MIN=                0,   -27958,7650725063,    -23883,894069334,           1
##MAX=     6.553400e+00,    52712,6566722113,    39659,4259632818,           2
##FACTOR=             1,                   1,                   1,           1
##PAGE=N=1
##DATA TABLE=(X++(R..R)), XYDATA
          0.00000000000000           0.00000000000037       52712.65667221130000       50562.09578095740000       47677.16043461600000       45475.50021725990000
          0.00100000004750       41556.29362275470000       37442.27579729400000       32821.14681853100000       27834.23896451950000       22577.41081289070000
          0.00200000009499       17196.53726429270000       11809.82369190030000        6516.80117688128000        1437.70804686339000       -3310.24532910075000
          0.00300000002608       -7691.20283264273000      -11590.76613725400000      -14956.61466801150000      -17772.45845400820000      -19975.30998188330000
          0.00400000018999      -21561.37306858980000      -22571.27572595200000      -23017.13274501860000      -22909.43137088510000      -22340.17294993600000
          0.00499999988824      -21354.64204625230000      -20027.97141080450000      -18391.69024113890000      -16564.92058339010000      -14681.31188362280000
          0.00600000005215      -12748.39298559910000      -10872.04773144330000       -9121.47607585552000       -7578.52397562238000       -6266.45920320804000
          0.00700000021607       -5240.12907232116000       -4572.65169218795000       -4219.12877721608000       -4241.11244161483000       -4594.23124479088000
          0.00800000037998       -5270.45166694061000       -6249.95254138947000       -7479.77613584360000       -8916.66364831180000      -10510.05095083670000
          0.00899999961257      -12176.75104655280000      -13838.00619988420000      -15458.39008747400000      -16970.69448086100000      -18278.25359588060000
          0.00999999977648      -19356.41314053240000      -20125.13130448730000      -20569.18307392000000      -20635.88469245130000      -20313.03022215890000
          0.01099999994040      -19565.56094674470000      -18385.61667387920000      -16834.66219059430000      -14882.00695258370000      -12606.07040624710000
          0.01200000010431      -10051.69887733510000       -7244.67965970485000       -4252.84465981158000       -1167.42185410000000        1970.95161872441000
          0.01300000026822        5066.16841705214000        8076.42959424022000       10866.39807034270000       13429.66925688830000       15694.09107223800000
          0.01400000043213       17583.00928889410000       19112.50438504690000       20200.49575549760000       20825.12376988090000       21023.29816493260000
          0.01499999966472       20758.13652799280000       20086.65395607850000       19007.07811869620000       17586.66547103540000       15856.16543182960000
          0.01600000075996       13869.26802991420000       11700.41886992790000        9424.19373757893000        7140.64716648944000        4863.84246871373000
          0.01700000092387        2701.13024827275000         705.92186620025400       -1056.52249428938000       -2528.65024140009000       -3689.21679780607000
          0.01799999922514       -4459.97126653992000       -4838.86197688820000       -4810.27127531961000       -4402.75980180535000       -3623.34592089758000
          0.01899999938905       -2464.57654683978000        -976.69736639966300         787.92877560389400        2805.42801275928000        4950.09256507472000
          0.01999999955297        7209.20628646264000        9497.61658843040000       11715.25840377270000       13832.42454217700000       15764.48065061730000
          0.02099999971688       17450.58345243880000       18808.07543598890000       19809.98204060170000       20411.90960158130000       20568.85944831980000
          0.02199999988079       20291.16223180000000       19569.50658797600000       18342.79460511860000       16676.36589560870000       14606.58826408440000
          0.02300000004470       12173.79174112250000        9413.67924725110000        6353.93888633603000        3098.58902291405000        -316.04395154474200
          0.02400000020862       -3774.78643223697000       -7226.77545263256000      -10637.93031524600000      -13859.54049503880000      -16897.55092827370000
          0.02500000037253      -19649.59788915660000      -22052.90321693840000      -24103.90010660450000      -25732.39920660980000      -26925.05796094650000
          0.02600000053644      -27685.53659997360000      -27958.76507250630000      -27808.39457950520000      -27211.56405741780000      -26216.52145856770000
          0.02700000070035      -24870.05685916740000      -23192.09994948940000      -21227.84210781130000      -19035.79227369680000      -16712.00436878220000
          0.02800000086427      -14288.12984215700000      -11794.36810318630000       -9353.03560491447000       -6976.96711934573000       -4679.23024393771000
          0.02900000102818       -2567.90132214256000        -649.44516055916900        1053.28595233439000        2488.45176958363000        3694.83811946738000
          0.02999999932945        4635.10058068025000        5310.01888681526000        5770.65471374718000        6008.33922731112000        6066.86123345067000
          0.03099999949336        5930.16937819750000        5702.62782383473000        5388.81756641416000        5025.12055661102000        4650.84964463115000
          0.03200000151992        4336.43566947509000        4089.91710177573000        3901.88894358024000        3854.03011578319000        3932.03643288120000
          0.03299999982119        4178.00137130885000        4587.57623134983000        5152.11083217860000        5851.62814770253000        6683.51357997442000
          0.03400000184774        7635.27165067085000        8684.65785067379000        9779.64943189957000       10883.08857983600000       11985.49640452570000
          0.03500000014901       13017.64036171580000       13956.53985958240000       14783.45015634250000       15423.35628307230000       15858.77865018880000
          0.03599999845028       16090.69071738500000       16094.14704712890000       15814.52016954870000       15281.77425988980000       14485.64736968020000
          0.03700000047684       13415.38793390370000       12094.29670436560000       10549.04476717640000        8808.00343657767000        6881.45329372660000
          0.03799999877810        4814.83389898178000        2657.06529169917000         475.42425708609900       -1730.90242061830000       -3910.30068492414000
          0.03900000080466       -5982.35490238540000       -7964.63794989021000       -9749.74563337377000      -11351.15844837610000      -12700.56026436270000
          0.03999999910593      -13807.56448994620000      -14605.46358813050000      -15108.31996572380000      -15335.67588276100000      -15265.18267124560000
          0.04100000113249      -14892.21572806230000      -14257.30246005080000      -13371.61982167100000      -12253.44073153680000      -10921.79585003720000
          0.04199999943376       -9463.43137236944000       -7907.93145265469000       -6235.23185925826000       -4563.95858472167000       -2912.62282143843000
          0.04300000146031       -1297.90647813715000         242.08292434677800        1616.39753545465000        2840.76455726654000        3906.05524896934000
          0.04399999976158        4742.57879826901000        5360.93382290633000        5762.18407155608000        5903.28696785439000        5844.33189274665000
          0.04500000178814        5565.98182280254000        5092.58343942113000        4412.70734268292000        3610.63058305507000        2678.97007554168000
          0.04600000008941        1635.88539453745000         574.26777461161700        -528.74009454111600       -1624.54877754590000       -2669.78611783130000
          0.04700000211596       -3649.58548743572000       -4513.03811109819000       -5269.60739695574000       -5877.41558549448000       -6278.50959670765000
          0.04800000041723       -6545.46584009650000       -6621.95525950257000       -6487.82646327039000       -6214.37868229187000       -5774.35468924302000
          0.04899999871850       -5169.10675026778000       -4429.13480281541000       -3606.38583293132000       -2652.17380621343000       -1656.07159241498000
          0.05000000074506        -614.52454011875200         464.15188158501500        1522.15710353696000        2520.04889769692000        3442.47430958154000
